####################
#Euclidean normalized differential source counts at 325 MHz from the model in Massardi et al. (2010).
# col. 1 =      log(S [Jy])
# col. 2 =      S^2.5dN/dS[Jy^1.5/sr] (sum of all the populations)
# col. 3 =      source counts for FSRQs	
# col. 4 =      source counts for BLLacs	
# col. 5 =      source counts for steep-spectrum objects	
##################
# desc: logs@@float dnds_total@@float dnds_fsrq@@float dnds_bllacs@@float dnds_steep@@float
         -6.000      0.175E-01      0.310E-03      0.608E-02      0.111E-01
         -5.920      0.206E-01      0.355E-03      0.703E-02      0.132E-01
         -5.840      0.242E-01      0.407E-03      0.812E-02      0.157E-01
         -5.760      0.285E-01      0.466E-03      0.938E-02      0.187E-01
         -5.680      0.336E-01      0.535E-03      0.108E-01      0.222E-01
         -5.600      0.396E-01      0.613E-03      0.125E-01      0.265E-01
         -5.520      0.466E-01      0.703E-03      0.144E-01      0.315E-01
         -5.440      0.549E-01      0.805E-03      0.167E-01      0.375E-01
         -5.360      0.647E-01      0.923E-03      0.192E-01      0.446E-01
         -5.280      0.763E-01      0.106E-02      0.222E-01      0.531E-01
         -5.200      0.899E-01      0.121E-02      0.256E-01      0.631E-01
         -5.120      0.106E+00      0.139E-02      0.296E-01      0.754E-01
         -5.040      0.125E+00      0.159E-02      0.341E-01      0.898E-01
         -4.960      0.148E+00      0.183E-02      0.393E-01      0.107E+00
         -4.880      0.175E+00      0.209E-02      0.454E-01      0.127E+00
         -4.800      0.206E+00      0.240E-02      0.523E-01      0.151E+00
         -4.720      0.243E+00      0.275E-02      0.604E-01      0.180E+00
         -4.640      0.287E+00      0.315E-02      0.696E-01      0.214E+00
         -4.560      0.339E+00      0.361E-02      0.803E-01      0.255E+00
         -4.480      0.401E+00      0.414E-02      0.925E-01      0.305E+00
         -4.400      0.474E+00      0.474E-02      0.107E+00      0.363E+00
         -4.320      0.560E+00      0.544E-02      0.123E+00      0.432E+00
         -4.240      0.662E+00      0.622E-02      0.142E+00      0.515E+00
         -4.160      0.783E+00      0.714E-02      0.163E+00      0.613E+00
         -4.080      0.926E+00      0.818E-02      0.188E+00      0.730E+00
         -4.000      0.110E+01      0.938E-02      0.216E+00      0.870E+00
         -3.920      0.130E+01      0.108E-01      0.249E+00      0.104E+01
         -3.840      0.153E+01      0.123E-01      0.286E+00      0.123E+01
         -3.760      0.181E+01      0.141E-01      0.329E+00      0.147E+01
         -3.680      0.215E+01      0.162E-01      0.379E+00      0.175E+01
         -3.600      0.254E+01      0.185E-01      0.435E+00      0.209E+01
         -3.520      0.301E+01      0.213E-01      0.500E+00      0.249E+01
         -3.440      0.357E+01      0.244E-01      0.574E+00      0.297E+01
         -3.360      0.423E+01      0.279E-01      0.658E+00      0.355E+01
         -3.280      0.502E+01      0.320E-01      0.754E+00      0.423E+01
         -3.200      0.595E+01      0.367E-01      0.864E+00      0.505E+01
         -3.120      0.706E+01      0.420E-01      0.988E+00      0.603E+01
         -3.040      0.837E+01      0.482E-01      0.113E+01      0.720E+01
         -2.960      0.994E+01      0.552E-01      0.129E+01      0.859E+01
         -2.880      0.118E+02      0.633E-01      0.147E+01      0.103E+02
         -2.800      0.140E+02      0.725E-01      0.167E+01      0.123E+02
         -2.720      0.166E+02      0.831E-01      0.190E+01      0.146E+02
         -2.640      0.198E+02      0.952E-01      0.216E+01      0.175E+02
         -2.560      0.235E+02      0.109E+00      0.245E+01      0.209E+02
         -2.480      0.280E+02      0.125E+00      0.277E+01      0.251E+02
         -2.400      0.333E+02      0.143E+00      0.313E+01      0.300E+02
         -2.320      0.396E+02      0.164E+00      0.352E+01      0.359E+02
         -2.240      0.470E+02      0.188E+00      0.395E+01      0.429E+02
         -2.160      0.559E+02      0.216E+00      0.442E+01      0.512E+02
         -2.080      0.663E+02      0.247E+00      0.494E+01      0.611E+02
         -2.000      0.784E+02      0.283E+00      0.550E+01      0.726E+02
         -1.920      0.929E+02      0.324E+00      0.610E+01      0.865E+02
         -1.840      0.110E+03      0.372E+00      0.675E+01      0.103E+03
         -1.760      0.130E+03      0.426E+00      0.743E+01      0.122E+03
         -1.680      0.153E+03      0.487E+00      0.816E+01      0.145E+03
         -1.600      0.181E+03      0.558E+00      0.893E+01      0.171E+03
         -1.520      0.213E+03      0.639E+00      0.974E+01      0.203E+03
         -1.440      0.250E+03      0.732E+00      0.106E+02      0.239E+03
         -1.360      0.292E+03      0.838E+00      0.114E+02      0.280E+03
         -1.280      0.340E+03      0.959E+00      0.123E+02      0.327E+03
         -1.200      0.395E+03      0.110E+01      0.133E+02      0.380E+03
         -1.120      0.455E+03      0.125E+01      0.142E+02      0.440E+03
         -1.040      0.522E+03      0.144E+01      0.152E+02      0.506E+03
         -0.960      0.597E+03      0.164E+01      0.162E+02      0.579E+03
         -0.880      0.678E+03      0.188E+01      0.172E+02      0.659E+03
         -0.800      0.764E+03      0.215E+01      0.182E+02      0.744E+03
         -0.720      0.861E+03      0.245E+01      0.192E+02      0.839E+03
         -0.640      0.961E+03      0.280E+01      0.202E+02      0.938E+03
         -0.560      0.106E+04      0.320E+01      0.212E+02      0.104E+04
         -0.480      0.117E+04      0.365E+01      0.222E+02      0.114E+04
         -0.400      0.127E+04      0.416E+01      0.232E+02      0.125E+04
         -0.320      0.138E+04      0.473E+01      0.241E+02      0.135E+04
         -0.240      0.148E+04      0.537E+01      0.251E+02      0.145E+04
         -0.160      0.157E+04      0.608E+01      0.260E+02      0.154E+04
         -0.080      0.166E+04      0.686E+01      0.269E+02      0.162E+04
          0.000      0.173E+04      0.773E+01      0.278E+02      0.169E+04
          0.080      0.179E+04      0.869E+01      0.287E+02      0.175E+04
          0.160      0.183E+04      0.969E+01      0.295E+02      0.179E+04
          0.240      0.185E+04      0.107E+02      0.303E+02      0.181E+04
          0.320      0.187E+04      0.118E+02      0.312E+02      0.182E+04
          0.400      0.186E+04      0.130E+02      0.320E+02      0.181E+04
          0.480      0.183E+04      0.142E+02      0.328E+02      0.178E+04
          0.560      0.179E+04      0.154E+02      0.336E+02      0.174E+04
          0.640      0.175E+04      0.167E+02      0.344E+02      0.169E+04
          0.720      0.169E+04      0.180E+02      0.352E+02      0.164E+04
          0.800      0.163E+04      0.193E+02      0.360E+02      0.157E+04
          0.880      0.157E+04      0.205E+02      0.367E+02      0.151E+04
          0.960      0.150E+04      0.215E+02      0.375E+02      0.145E+04
          1.040      0.144E+04      0.221E+02      0.382E+02      0.138E+04
          1.120      0.136E+04      0.225E+02      0.388E+02      0.130E+04
          1.200      0.130E+04      0.230E+02      0.395E+02      0.124E+04
          1.280      0.123E+04      0.235E+02      0.401E+02      0.117E+04
          1.360      0.116E+04      0.230E+02      0.407E+02      0.110E+04
          1.440      0.109E+04      0.221E+02      0.412E+02      0.103E+04
          1.520      0.102E+04      0.210E+02      0.418E+02      0.960E+03
          1.600      0.953E+03      0.199E+02      0.423E+02      0.891E+03
          1.680      0.888E+03      0.187E+02      0.428E+02      0.826E+03
          1.760      0.833E+03      0.174E+02      0.434E+02      0.772E+03
          1.840      0.783E+03      0.161E+02      0.439E+02      0.723E+03
          1.920      0.737E+03      0.147E+02      0.444E+02      0.678E+03
