#  log_10 of normalized differential counts per steradian [log(S^{5/2} dN/dS), S in Jy]  at 353.00 GHz
#          log S(Jy)    FSRQ        BL Lacs   flat total steep-spectrum     Total 
# desc: logs@@float dnds_fsrq@@float dnds_bllacs@@float dnds_flat@@float dnds_steep@@float dnds_total@@float
         -7.000       -4.201       -2.760       -2.744       -4.822       -2.741
         -6.900       -4.111       -2.697       -2.681       -4.727       -2.677
         -6.800       -4.023       -2.636       -2.619       -4.634       -2.615
         -6.700       -3.936       -2.576       -2.558       -4.540       -2.553
         -6.600       -3.850       -2.517       -2.498       -4.446       -2.493
         -6.500       -3.764       -2.459       -2.438       -4.352       -2.433
         -6.400       -3.679       -2.401       -2.379       -4.254       -2.373
         -6.300       -3.594       -2.345       -2.321       -4.159       -2.315
         -6.200       -3.509       -2.289       -2.263       -4.062       -2.256
         -6.100       -3.424       -2.233       -2.206       -3.959       -2.199
         -6.000       -3.339       -2.179       -2.150       -3.862       -2.141
         -5.900       -3.255       -2.125       -2.094       -3.753       -2.084
         -5.800       -3.170       -2.071       -2.038       -3.646       -2.027
         -5.700       -3.086       -2.018       -1.982       -3.537       -1.970
         -5.600       -3.001       -1.965       -1.926       -3.417       -1.913
         -5.500       -2.917       -1.912       -1.871       -3.301       -1.855
         -5.400       -2.833       -1.860       -1.816       -3.163       -1.797
         -5.300       -2.748       -1.808       -1.761       -3.039       -1.738
         -5.200       -2.664       -1.756       -1.706       -2.890       -1.678
         -5.100       -2.580       -1.705       -1.651       -2.736       -1.616
         -5.000       -2.496       -1.654       -1.596       -2.573       -1.552
         -4.900       -2.411       -1.604       -1.541       -2.408       -1.485
         -4.800       -2.327       -1.553       -1.486       -2.273       -1.420
         -4.700       -2.243       -1.503       -1.430       -2.162       -1.356
         -4.600       -2.159       -1.453       -1.375       -2.064       -1.294
         -4.500       -2.074       -1.404       -1.320       -1.972       -1.232
         -4.400       -1.990       -1.354       -1.264       -1.883       -1.170
         -4.300       -1.906       -1.305       -1.208       -1.798       -1.109
         -4.200       -1.822       -1.257       -1.152       -1.712       -1.046
         -4.100       -1.738       -1.208       -1.096       -1.630       -0.984
         -4.000       -1.653       -1.160       -1.039       -1.548       -0.922
         -3.900       -1.569       -1.112       -0.982       -1.468       -0.859
         -3.800       -1.485       -1.064       -0.924       -1.389       -0.796
         -3.700       -1.401       -1.017       -0.867       -1.316       -0.735
         -3.600       -1.317       -0.970       -0.808       -1.244       -0.673
         -3.500       -1.232       -0.923       -0.750       -1.175       -0.611
         -3.400       -1.148       -0.876       -0.690       -1.119       -0.553
         -3.300       -1.064       -0.830       -0.631       -1.071       -0.496
         -3.200       -0.980       -0.784       -0.570       -1.032       -0.441
         -3.100       -0.896       -0.739       -0.509       -1.031       -0.395
         -3.000       -0.812       -0.694       -0.448       -1.069       -0.355
         -2.900       -0.728       -0.649       -0.386       -1.142       -0.315
         -2.800       -0.644       -0.604       -0.323       -1.216       -0.270
         -2.700       -0.560       -0.560       -0.259       -1.265       -0.218
         -2.600       -0.476       -0.516       -0.195       -1.302       -0.162
         -2.500       -0.392       -0.473       -0.129       -1.336       -0.103
         -2.400       -0.308       -0.430       -0.064       -1.366       -0.042
         -2.300       -0.224       -0.387        0.003       -1.389        0.020
         -2.200       -0.141       -0.345        0.070       -1.411        0.084
         -2.100       -0.057       -0.303        0.138       -1.432        0.150
         -2.000        0.027       -0.261        0.207       -1.451        0.217
         -1.900        0.110       -0.220        0.277       -1.470        0.284
         -1.800        0.193       -0.179        0.347       -1.485        0.353
         -1.700        0.276       -0.139        0.417       -1.499        0.423
         -1.600        0.358       -0.098        0.489       -1.514        0.493
         -1.500        0.441       -0.059        0.560       -1.525        0.564
         -1.400        0.522       -0.019        0.632       -1.534        0.635
         -1.300        0.603        0.020        0.704       -1.548        0.706
         -1.200        0.684        0.058        0.776       -1.554        0.778
         -1.100        0.763        0.096        0.848       -1.566        0.849
         -1.000        0.841        0.134        0.919       -1.571        0.920
         -0.900        0.917        0.172        0.989       -1.575        0.990
         -0.800        0.991        0.209        1.057       -1.585        1.058
         -0.700        1.062        0.245        1.123       -1.589        1.124
         -0.600        1.128        0.282        1.186       -1.594        1.187
         -0.500        1.190        0.318        1.244       -1.597        1.245
         -0.400        1.244        0.353        1.296       -1.602        1.297
         -0.300        1.289        0.389        1.340       -1.606        1.341
         -0.200        1.322        0.423        1.374       -1.608        1.374
         -0.100        1.343        0.458        1.396       -1.610        1.396
          0.000        1.348        0.492        1.405       -1.611        1.405
          0.100        1.339        0.526        1.401       -1.612        1.402
          0.200        1.316        0.560        1.386       -1.615        1.387
          0.300        1.282        0.589        1.362       -1.618        1.362
          0.400        1.239        0.618        1.332       -1.620        1.333
          0.500        1.192        0.645        1.300       -1.622        1.301
          0.600        1.143        0.671        1.269       -1.623        1.270
          0.700        1.094        0.696        1.240       -1.623        1.241
          0.800        1.047        0.719        1.214       -1.623        1.215
          0.900        1.004        0.741        1.193       -1.623        1.194
          1.000        0.964        0.762        1.176       -1.625        1.177
          1.100        0.929        0.781        1.162       -1.625        1.163
          1.200        0.898        0.798        1.152       -1.628        1.153
          1.300        0.871        0.813        1.144       -1.623        1.145
          1.400        0.847        0.827        1.138       -1.630        1.139
          1.500        0.826        0.839        1.134       -1.629        1.135
          1.600        0.809        0.850        1.131       -1.629        1.131
          1.700        0.793        0.862        1.130       -1.629        1.131
          1.800        0.780        0.869        1.128       -1.627        1.129
          1.900        0.769        0.879        1.129       -1.627        1.129
          2.000        0.759        0.888        1.129       -1.628        1.130



