####################
#Euclidean normalized differential source counts at 1.4 GHz from the model in Massardi et al. (2010).
# col. 1 =      log(S [Jy])
# col. 2 =      S^2.5dN/dS[Jy^1.5/sr] (sum of all the populations)
# col. 3 =      source counts for FSRQs	
# col. 4 =      source counts for BLLacs	
# col. 5 =      source counts for steep-spectrum objects	
##################
# desc: logs@@float dnds_total@@float dnds_fsrq@@float dnds_bllacs@@float dnds_steep@@float
         -6.000      0.116E-01      0.277E-03      0.548E-02      0.580E-02
         -5.920      0.135E-01      0.318E-03      0.633E-02      0.690E-02
         -5.840      0.159E-01      0.364E-03      0.731E-02      0.820E-02
         -5.760      0.186E-01      0.418E-03      0.844E-02      0.976E-02
         -5.680      0.218E-01      0.479E-03      0.975E-02      0.116E-01
         -5.600      0.257E-01      0.549E-03      0.113E-01      0.139E-01
         -5.520      0.301E-01      0.629E-03      0.130E-01      0.165E-01
         -5.440      0.354E-01      0.721E-03      0.150E-01      0.197E-01
         -5.360      0.415E-01      0.826E-03      0.173E-01      0.234E-01
         -5.280      0.488E-01      0.947E-03      0.200E-01      0.278E-01
         -5.200      0.573E-01      0.109E-02      0.230E-01      0.331E-01
         -5.120      0.673E-01      0.124E-02      0.266E-01      0.394E-01
         -5.040      0.791E-01      0.143E-02      0.307E-01      0.470E-01
         -4.960      0.931E-01      0.163E-02      0.354E-01      0.561E-01
         -4.880      0.109E+00      0.187E-02      0.408E-01      0.668E-01
         -4.800      0.129E+00      0.215E-02      0.471E-01      0.795E-01
         -4.720      0.151E+00      0.246E-02      0.543E-01      0.947E-01
         -4.640      0.178E+00      0.282E-02      0.626E-01      0.113E+00
         -4.560      0.210E+00      0.323E-02      0.722E-01      0.134E+00
         -4.480      0.247E+00      0.370E-02      0.832E-01      0.160E+00
         -4.400      0.291E+00      0.425E-02      0.959E-01      0.191E+00
         -4.320      0.343E+00      0.486E-02      0.110E+00      0.227E+00
         -4.240      0.404E+00      0.557E-02      0.127E+00      0.271E+00
         -4.160      0.476E+00      0.639E-02      0.147E+00      0.323E+00
         -4.080      0.561E+00      0.732E-02      0.169E+00      0.385E+00
         -4.000      0.662E+00      0.839E-02      0.194E+00      0.459E+00
         -3.920      0.781E+00      0.962E-02      0.224E+00      0.547E+00
         -3.840      0.921E+00      0.110E-01      0.257E+00      0.653E+00
         -3.760      0.109E+01      0.126E-01      0.296E+00      0.779E+00
         -3.680      0.128E+01      0.145E-01      0.340E+00      0.930E+00
         -3.600      0.152E+01      0.166E-01      0.390E+00      0.111E+01
         -3.520      0.179E+01      0.190E-01      0.448E+00      0.133E+01
         -3.440      0.212E+01      0.218E-01      0.514E+00      0.158E+01
         -3.360      0.250E+01      0.250E-01      0.589E+00      0.189E+01
         -3.280      0.296E+01      0.286E-01      0.675E+00      0.226E+01
         -3.200      0.350E+01      0.328E-01      0.772E+00      0.270E+01
         -3.120      0.414E+01      0.376E-01      0.883E+00      0.322E+01
         -3.040      0.492E+01      0.431E-01      0.101E+01      0.387E+01
         -2.960      0.583E+01      0.494E-01      0.115E+01      0.463E+01
         -2.880      0.690E+01      0.566E-01      0.131E+01      0.553E+01
         -2.800      0.817E+01      0.649E-01      0.149E+01      0.662E+01
         -2.720      0.967E+01      0.744E-01      0.169E+01      0.790E+01
         -2.640      0.114E+02      0.852E-01      0.192E+01      0.944E+01
         -2.560      0.135E+02      0.977E-01      0.217E+01      0.112E+02
         -2.480      0.159E+02      0.112E+00      0.245E+01      0.134E+02
         -2.400      0.188E+02      0.128E+00      0.276E+01      0.159E+02
         -2.320      0.222E+02      0.147E+00      0.310E+01      0.189E+02
         -2.240      0.261E+02      0.168E+00      0.347E+01      0.225E+02
         -2.160      0.307E+02      0.193E+00      0.388E+01      0.266E+02
         -2.080      0.360E+02      0.221E+00      0.432E+01      0.315E+02
         -2.000      0.423E+02      0.253E+00      0.480E+01      0.373E+02
         -1.920      0.494E+02      0.290E+00      0.531E+01      0.438E+02
         -1.840      0.574E+02      0.332E+00      0.585E+01      0.512E+02
         -1.760      0.665E+02      0.381E+00      0.643E+01      0.597E+02
         -1.680      0.768E+02      0.436E+00      0.704E+01      0.693E+02
         -1.600      0.883E+02      0.499E+00      0.769E+01      0.801E+02
         -1.520      0.101E+03      0.572E+00      0.835E+01      0.919E+02
         -1.440      0.115E+03      0.654E+00      0.905E+01      0.105E+03
         -1.360      0.130E+03      0.749E+00      0.977E+01      0.119E+03
         -1.280      0.146E+03      0.857E+00      0.105E+02      0.134E+03
         -1.200      0.164E+03      0.980E+00      0.113E+02      0.152E+03
         -1.120      0.182E+03      0.112E+01      0.120E+02      0.169E+03
         -1.040      0.200E+03      0.128E+01      0.128E+02      0.186E+03
         -0.960      0.219E+03      0.147E+01      0.136E+02      0.204E+03
         -0.880      0.238E+03      0.168E+01      0.144E+02      0.222E+03
         -0.800      0.258E+03      0.192E+01      0.153E+02      0.240E+03
         -0.720      0.275E+03      0.219E+01      0.161E+02      0.257E+03
         -0.640      0.291E+03      0.250E+01      0.169E+02      0.272E+03
         -0.560      0.306E+03      0.285E+01      0.177E+02      0.285E+03
         -0.480      0.319E+03      0.325E+01      0.185E+02      0.297E+03
         -0.400      0.329E+03      0.370E+01      0.192E+02      0.306E+03
         -0.320      0.336E+03      0.420E+01      0.200E+02      0.312E+03
         -0.240      0.341E+03      0.476E+01      0.207E+02      0.315E+03
         -0.160      0.342E+03      0.537E+01      0.215E+02      0.315E+03
         -0.080      0.341E+03      0.606E+01      0.222E+02      0.313E+03
          0.000      0.337E+03      0.683E+01      0.229E+02      0.308E+03
          0.080      0.331E+03      0.761E+01      0.236E+02      0.300E+03
          0.160      0.323E+03      0.844E+01      0.242E+02      0.290E+03
          0.240      0.314E+03      0.931E+01      0.249E+02      0.280E+03
          0.320      0.305E+03      0.102E+02      0.256E+02      0.269E+03
          0.400      0.295E+03      0.112E+02      0.262E+02      0.258E+03
          0.480      0.286E+03      0.122E+02      0.269E+02      0.247E+03
          0.560      0.275E+03      0.132E+02      0.275E+02      0.234E+03
          0.640      0.264E+03      0.142E+02      0.281E+02      0.222E+03
          0.720      0.254E+03      0.153E+02      0.288E+02      0.210E+03
          0.800      0.244E+03      0.163E+02      0.294E+02      0.199E+03
          0.880      0.233E+03      0.171E+02      0.300E+02      0.186E+03
          0.960      0.222E+03      0.177E+02      0.305E+02      0.174E+03
          1.040      0.211E+03      0.180E+02      0.311E+02      0.162E+03
          1.120      0.200E+03      0.183E+02      0.316E+02      0.151E+03
          1.200      0.191E+03      0.190E+02      0.321E+02      0.140E+03
          1.280      0.182E+03      0.185E+02      0.326E+02      0.131E+03
          1.360      0.174E+03      0.179E+02      0.330E+02      0.123E+03
          1.440      0.165E+03      0.171E+02      0.335E+02      0.115E+03
          1.520      0.158E+03      0.162E+02      0.339E+02      0.108E+03
          1.600      0.152E+03      0.152E+02      0.343E+02      0.103E+03
          1.680      0.149E+03      0.142E+02      0.347E+02      0.999E+02
          1.760      0.145E+03      0.131E+02      0.352E+02      0.969E+02
          1.840      0.142E+03      0.121E+02      0.356E+02      0.943E+02
          1.920      0.139E+03      0.110E+02      0.360E+02      0.922E+02
