#  log_10 of normalized differential counts per steradian [log(S^{5/2} dN/dS), S in Jy] at  2997.92 GHz,  i.e.  0.100E+03 micron
#          log S(Jy)    FSRQ        BL Lacs   flat total steep-spectrum     Total 
# desc: logs@@float dnds_fsrq@@float dnds_bllacs@@float dnds_flat@@float dnds_steep@@float dnds_total@@float
         -7.000       -4.257       -2.840       -2.824       -5.342       -2.823
         -6.900       -4.169       -2.779       -2.762       -5.238       -2.761
         -6.800       -4.082       -2.719       -2.701       -5.136       -2.699
         -6.700       -3.995       -2.660       -2.641       -5.019       -2.639
         -6.600       -3.910       -2.602       -2.581       -4.909       -2.579
         -6.500       -3.824       -2.545       -2.522       -4.794       -2.520
         -6.400       -3.739       -2.488       -2.465       -4.660       -2.462
         -6.300       -3.654       -2.432       -2.407       -4.533       -2.404
         -6.200       -3.569       -2.376       -2.349       -4.392       -2.346
         -6.100       -3.485       -2.322       -2.293       -4.240       -2.288
         -6.000       -3.400       -2.268       -2.237       -4.082       -2.231
         -5.900       -3.315       -2.214       -2.181       -3.923       -2.173
         -5.800       -3.231       -2.161       -2.125       -3.774       -2.116
         -5.700       -3.147       -2.108       -2.070       -3.655       -2.059
         -5.600       -3.062       -2.055       -2.014       -3.556       -2.002
         -5.500       -2.978       -2.003       -1.959       -3.462       -1.946
         -5.400       -2.894       -1.951       -1.904       -3.375       -1.890
         -5.300       -2.809       -1.900       -1.849       -3.291       -1.834
         -5.200       -2.725       -1.848       -1.794       -3.210       -1.778
         -5.100       -2.641       -1.797       -1.739       -3.131       -1.722
         -5.000       -2.557       -1.747       -1.684       -3.054       -1.666
         -4.900       -2.472       -1.696       -1.629       -2.982       -1.610
         -4.800       -2.388       -1.646       -1.574       -2.918       -1.554
         -4.700       -2.304       -1.596       -1.518       -2.862       -1.499
         -4.600       -2.220       -1.547       -1.463       -2.817       -1.444
         -4.500       -2.135       -1.497       -1.407       -2.795       -1.390
         -4.400       -2.051       -1.448       -1.351       -2.802       -1.336
         -4.300       -1.967       -1.399       -1.295       -2.872       -1.284
         -4.200       -1.883       -1.351       -1.239       -2.953       -1.231
         -4.100       -1.799       -1.303       -1.182       -3.026       -1.176
         -4.000       -1.715       -1.255       -1.125       -3.084       -1.121
         -3.900       -1.630       -1.207       -1.068       -3.122       -1.064
         -3.800       -1.546       -1.160       -1.010       -3.156       -1.007
         -3.700       -1.462       -1.112       -0.952       -3.187       -0.949
         -3.600       -1.378       -1.066       -0.893       -3.211       -0.891
         -3.500       -1.294       -1.019       -0.834       -3.238       -0.832
         -3.400       -1.210       -0.973       -0.774       -3.252       -0.773
         -3.300       -1.125       -0.927       -0.714       -3.267       -0.713
         -3.200       -1.041       -0.882       -0.653       -3.281       -0.652
         -3.100       -0.957       -0.836       -0.592       -3.295       -0.591
         -3.000       -0.873       -0.791       -0.529       -3.309       -0.529
         -2.900       -0.789       -0.747       -0.466       -3.315       -0.466
         -2.800       -0.705       -0.703       -0.403       -3.328       -0.402
         -2.700       -0.621       -0.659       -0.339       -3.336       -0.338
         -2.600       -0.537       -0.615       -0.273       -3.343       -0.273
         -2.500       -0.453       -0.572       -0.208       -3.351       -0.207
         -2.400       -0.370       -0.529       -0.141       -3.355       -0.141
         -2.300       -0.286       -0.487       -0.074       -3.357       -0.074
         -2.200       -0.202       -0.445       -0.006       -3.369       -0.006
         -2.100       -0.119       -0.403        0.063       -3.370        0.063
         -2.000       -0.035       -0.362        0.132       -3.371        0.132
         -1.900        0.048       -0.321        0.202       -3.372        0.202
         -1.800        0.131       -0.281        0.273       -3.375        0.273
         -1.700        0.213       -0.241        0.344       -3.381        0.344
         -1.600        0.295       -0.201        0.416       -3.381        0.416
         -1.500        0.377       -0.162        0.488       -3.384        0.488
         -1.400        0.458       -0.123        0.560       -3.385        0.560
         -1.300        0.539       -0.084        0.632       -3.385        0.632
         -1.200        0.618       -0.046        0.703       -3.395        0.703
         -1.100        0.696       -0.008        0.774       -3.395        0.774
         -1.000        0.772        0.030        0.845       -3.396        0.845
         -0.900        0.846        0.067        0.913       -3.393        0.913
         -0.800        0.917        0.103        0.979       -3.392        0.979
         -0.700        0.984        0.140        1.042       -3.395        1.042
         -0.600        1.046        0.176        1.101       -3.395        1.101
         -0.500        1.101        0.211        1.153       -3.394        1.153
         -0.400        1.146        0.247        1.198       -3.393        1.198
         -0.300        1.181        0.282        1.233       -3.394        1.233
         -0.200        1.202        0.316        1.255       -3.396        1.255
         -0.100        1.209        0.350        1.265       -3.398        1.265
          0.000        1.201        0.384        1.263       -3.400        1.263
          0.100        1.179        0.418        1.248       -3.402        1.248
          0.200        1.145        0.448        1.225       -3.402        1.225
          0.300        1.103        0.476        1.195       -3.401        1.195
          0.400        1.056        0.504        1.163       -3.400        1.163
          0.500        1.007        0.530        1.132       -3.400        1.132
          0.600        0.958        0.555        1.103       -3.402        1.103
          0.700        0.911        0.579        1.077       -3.402        1.077
          0.800        0.867        0.600        1.055       -3.398        1.055
          0.900        0.828        0.620        1.037       -3.398        1.037
          1.000        0.792        0.639        1.023       -3.397        1.023
          1.100        0.761        0.656        1.013       -3.396        1.013
          1.200        0.733        0.672        1.005       -3.396        1.005
          1.300        0.709        0.686        0.999       -3.398        0.999
          1.400        0.688        0.701        0.996       -3.400        0.996
          1.500        0.670        0.711        0.992       -3.402        0.992
          1.600        0.655        0.720        0.990       -3.404        0.990
          1.700        0.642        0.731        0.990       -3.404        0.990
          1.800        0.630        0.738        0.988       -3.403        0.988
          1.900        0.620        0.746        0.989       -3.402        0.989
          2.000        0.611        0.753        0.989       -3.403        0.989


