#  log_10 of normalized differential counts per steradian [log(S^{5/2} dN/dS), S in Jy]  at 100.00 GHz
#          log S(Jy)    FSRQ        BL Lacs   flat total steep-spectrum     Total 
# desc: logs@@float dnds_fsrq@@float dnds_bllacs@@float dnds_flat@@float dnds_steep@@float dnds_total@@float
         -7.000       -4.168       -2.714       -2.699       -4.534       -2.692
         -6.900       -4.078       -2.650       -2.634       -4.437       -2.627
         -6.800       -3.989       -2.587       -2.571       -4.340       -2.563
         -6.700       -3.901       -2.527       -2.509       -4.244       -2.501
         -6.600       -3.815       -2.467       -2.448       -4.149       -2.439
         -6.500       -3.729       -2.408       -2.388       -4.055       -2.379
         -6.400       -3.643       -2.351       -2.329       -3.960       -2.319
         -6.300       -3.558       -2.294       -2.271       -3.865       -2.260
         -6.200       -3.473       -2.237       -2.212       -3.771       -2.201
         -6.100       -3.388       -2.181       -2.155       -3.677       -2.142
         -6.000       -3.303       -2.127       -2.099       -3.583       -2.085
         -5.900       -3.219       -2.072       -2.042       -3.489       -2.027
         -5.800       -3.134       -2.018       -1.986       -3.393       -1.969
         -5.700       -3.050       -1.964       -1.930       -3.298       -1.912
         -5.600       -2.965       -1.911       -1.875       -3.197       -1.854
         -5.500       -2.881       -1.859       -1.819       -3.092       -1.797
         -5.400       -2.797       -1.806       -1.764       -2.995       -1.739
         -5.300       -2.712       -1.754       -1.709       -2.884       -1.681
         -5.200       -2.628       -1.703       -1.654       -2.778       -1.622
         -5.100       -2.544       -1.651       -1.599       -2.654       -1.562
         -5.000       -2.460       -1.600       -1.544       -2.539       -1.502
         -4.900       -2.375       -1.549       -1.489       -2.417       -1.440
         -4.800       -2.291       -1.499       -1.434       -2.282       -1.376
         -4.700       -2.207       -1.448       -1.379       -2.143       -1.310
         -4.600       -2.123       -1.398       -1.323       -1.990       -1.239
         -4.500       -2.038       -1.349       -1.268       -1.822       -1.161
         -4.400       -1.954       -1.299       -1.212       -1.653       -1.078
         -4.300       -1.870       -1.250       -1.157       -1.508       -0.997
         -4.200       -1.786       -1.201       -1.101       -1.393       -0.922
         -4.100       -1.702       -1.152       -1.044       -1.293       -0.850
         -4.000       -1.617       -1.104       -0.988       -1.200       -0.780
         -3.900       -1.533       -1.056       -0.931       -1.111       -0.711
         -3.800       -1.449       -1.008       -0.874       -1.023       -0.641
         -3.700       -1.365       -0.961       -0.816       -0.937       -0.571
         -3.600       -1.281       -0.913       -0.758       -0.853       -0.502
         -3.500       -1.196       -0.866       -0.700       -0.770       -0.432
         -3.400       -1.112       -0.820       -0.641       -0.687       -0.362
         -3.300       -1.028       -0.773       -0.581       -0.607       -0.293
         -3.200       -0.944       -0.727       -0.521       -0.528       -0.224
         -3.100       -0.860       -0.682       -0.461       -0.452       -0.155
         -3.000       -0.776       -0.636       -0.399       -0.378       -0.087
         -2.900       -0.692       -0.591       -0.338       -0.308       -0.022
         -2.800       -0.608       -0.547       -0.275       -0.245        0.041
         -2.700       -0.524       -0.502       -0.212       -0.186        0.102
         -2.600       -0.440       -0.458       -0.148       -0.135        0.160
         -2.500       -0.356       -0.415       -0.083       -0.103        0.208
         -2.400       -0.272       -0.371       -0.018       -0.094        0.247
         -2.300       -0.188       -0.328        0.049       -0.124        0.272
         -2.200       -0.104       -0.286        0.115       -0.188        0.291
         -2.100       -0.021       -0.244        0.183       -0.240        0.322
         -2.000        0.063       -0.202        0.252       -0.284        0.362
         -1.900        0.146       -0.160        0.321       -0.318        0.411
         -1.800        0.230       -0.119        0.390       -0.345        0.464
         -1.700        0.313       -0.078        0.461       -0.373        0.520
         -1.600        0.395       -0.038        0.532       -0.401        0.580
         -1.500        0.478        0.002        0.603       -0.424        0.642
         -1.400        0.560        0.041        0.675       -0.447        0.706
         -1.300        0.641        0.080        0.747       -0.468        0.772
         -1.200        0.722        0.119        0.819       -0.488        0.840
         -1.100        0.802        0.158        0.891       -0.507        0.908
         -1.000        0.881        0.196        0.962       -0.524        0.976
         -0.900        0.958        0.233        1.033       -0.540        1.044
         -0.800        1.033        0.271        1.102       -0.554        1.112
         -0.700        1.106        0.307        1.170       -0.569        1.178
         -0.600        1.175        0.344        1.234       -0.580        1.241
         -0.500        1.239        0.380        1.295       -0.589        1.301
         -0.400        1.297        0.416        1.351       -0.602        1.356
         -0.300        1.347        0.451        1.399       -0.609        1.404
         -0.200        1.388        0.487        1.439       -0.620        1.443
         -0.100        1.415        0.521        1.468       -0.625        1.471
          0.000        1.429        0.556        1.484       -0.631        1.487
          0.100        1.428        0.590        1.487       -0.637        1.490
          0.200        1.412        0.624        1.478       -0.642        1.481
          0.300        1.384        0.656        1.458       -0.646        1.462
          0.400        1.345        0.685        1.431       -0.651        1.435
          0.500        1.300        0.713        1.400       -0.654        1.404
          0.600        1.252        0.739        1.368       -0.657        1.372
          0.700        1.203        0.765        1.338       -0.659        1.342
          0.800        1.155        0.789        1.310       -0.666        1.315
          0.900        1.109        0.811        1.286       -0.668        1.291
          1.000        1.068        0.833        1.267       -0.668        1.272
          1.100        1.030        0.853        1.251       -0.669        1.257
          1.200        0.997        0.869        1.239       -0.671        1.244
          1.300        0.967        0.887        1.230       -0.672        1.235
          1.400        0.942        0.902        1.223       -0.673        1.229
          1.500        0.919        0.915        1.218       -0.673        1.224
          1.600        0.900        0.928        1.215       -0.674        1.221
          1.700        0.884        0.938        1.213       -0.675        1.218
          1.800        0.869        0.947        1.211       -0.677        1.217
          1.900        0.857        0.956        1.210       -0.678        1.216
          2.000        0.846        0.964        1.210       -0.679        1.216



