# log_10 of normalized differential counts per steradian [log(S^{5/2} dN/dS), S in Jy] at    20.00 GHz,  i.e.  0.150E+05 micron
#          log S(Jy)    FSRQ        BL Lacs   flat total steep-spectrum     Total 
# desc: logs@@float dnds_fsrq@@float dnds_bllacs@@float dnds_flat@@float dnds_steep@@float dnds_total@@float
         -7.000       -4.129       -2.653       -2.639       -4.229       -2.628
         -6.900       -4.036       -2.589       -2.574       -4.120       -2.562
         -6.800       -3.946       -2.527       -2.510       -4.018       -2.497
         -6.700       -3.858       -2.464       -2.446       -3.912       -2.432
         -6.600       -3.770       -2.403       -2.385       -3.811       -2.369
         -6.500       -3.684       -2.345       -2.325       -3.710       -2.308
         -6.400       -3.598       -2.286       -2.265       -3.612       -2.246
         -6.300       -3.513       -2.229       -2.207       -3.515       -2.186
         -6.200       -3.428       -2.172       -2.148       -3.418       -2.126
         -6.100       -3.343       -2.116       -2.091       -3.321       -2.066
         -6.000       -3.258       -2.060       -2.033       -3.227       -2.006
         -5.900       -3.173       -2.005       -1.976       -3.134       -1.947
         -5.800       -3.088       -1.951       -1.920       -3.039       -1.888
         -5.700       -3.004       -1.897       -1.864       -2.945       -1.830
         -5.600       -2.920       -1.844       -1.809       -2.852       -1.771
         -5.500       -2.835       -1.791       -1.753       -2.759       -1.712
         -5.400       -2.751       -1.738       -1.698       -2.665       -1.653
         -5.300       -2.666       -1.686       -1.643       -2.571       -1.594
         -5.200       -2.582       -1.634       -1.587       -2.473       -1.534
         -5.100       -2.498       -1.582       -1.532       -2.378       -1.474
         -5.000       -2.414       -1.531       -1.477       -2.281       -1.414
         -4.900       -2.329       -1.480       -1.422       -2.177       -1.352
         -4.800       -2.245       -1.429       -1.367       -2.080       -1.290
         -4.700       -2.161       -1.379       -1.312       -1.970       -1.226
         -4.600       -2.077       -1.328       -1.257       -1.863       -1.161
         -4.500       -1.992       -1.278       -1.202       -1.753       -1.094
         -4.400       -1.908       -1.229       -1.146       -1.632       -1.023
         -4.300       -1.824       -1.179       -1.091       -1.503       -0.949
         -4.200       -1.740       -1.130       -1.035       -1.377       -0.872
         -4.100       -1.656       -1.082       -0.979       -1.240       -0.789
         -4.000       -1.571       -1.033       -0.923       -1.083       -0.695
         -3.900       -1.487       -0.985       -0.866       -0.928       -0.595
         -3.800       -1.403       -0.937       -0.809       -0.755       -0.480
         -3.700       -1.319       -0.889       -0.752       -0.596       -0.366
         -3.600       -1.235       -0.841       -0.694       -0.474       -0.269
         -3.500       -1.150       -0.794       -0.636       -0.370       -0.182
         -3.400       -1.066       -0.747       -0.577       -0.275       -0.099
         -3.300       -0.982       -0.701       -0.518       -0.185       -0.019
         -3.200       -0.898       -0.655       -0.458       -0.097        0.060
         -3.100       -0.814       -0.609       -0.398       -0.010        0.139
         -3.000       -0.730       -0.563       -0.337        0.076        0.217
         -2.900       -0.646       -0.518       -0.276        0.160        0.295
         -2.800       -0.562       -0.473       -0.214        0.243        0.373
         -2.700       -0.478       -0.428       -0.151        0.326        0.451
         -2.600       -0.393       -0.384       -0.088        0.406        0.527
         -2.500       -0.310       -0.340       -0.024        0.486        0.603
         -2.400       -0.226       -0.297        0.041        0.562        0.677
         -2.300       -0.142       -0.253        0.107        0.637        0.749
         -2.200       -0.058       -0.211        0.173        0.708        0.820
         -2.100        0.026       -0.168        0.241        0.775        0.886
         -2.000        0.109       -0.126        0.309        0.838        0.950
         -1.900        0.193       -0.084        0.377        0.891        1.007
         -1.800        0.276       -0.043        0.446        0.937        1.058
         -1.700        0.360       -0.002        0.516        0.969        1.100
         -1.600        0.442        0.039        0.587        0.986        1.132
         -1.500        0.525        0.079        0.658        0.976        1.146
         -1.400        0.607        0.119        0.729        0.937        1.146
         -1.300        0.689        0.158        0.801        0.901        1.155
         -1.200        0.771        0.197        0.873        0.872        1.174
         -1.100        0.851        0.236        0.945        0.846        1.200
         -1.000        0.931        0.274        1.017        0.822        1.232
         -0.900        1.009        0.312        1.088        0.795        1.267
         -0.800        1.086        0.349        1.159        0.770        1.308
         -0.700        1.160        0.387        1.228        0.744        1.351
         -0.600        1.232        0.423        1.294        0.719        1.397
         -0.500        1.299        0.460        1.358        0.694        1.443
         -0.400        1.362        0.496        1.417        0.670        1.489
         -0.300        1.418        0.532        1.471        0.647        1.532
         -0.200        1.465        0.567        1.517        0.626        1.570
         -0.100        1.502        0.602        1.554        0.606        1.600
          0.000        1.526        0.637        1.579        0.587        1.621
          0.100        1.535        0.671        1.591        0.571        1.631
          0.200        1.530        0.705        1.590        0.555        1.629
          0.300        1.510        0.739        1.578        0.541        1.616
          0.400        1.478        0.769        1.556        0.527        1.595
          0.500        1.437        0.798        1.527        0.516        1.567
          0.600        1.391        0.826        1.495        0.507        1.538
          0.700        1.342        0.852        1.464        0.496        1.508
          0.800        1.293        0.877        1.434        0.488        1.480
          0.900        1.245        0.901        1.407        0.480        1.456
          1.000        1.201        0.923        1.385        0.474        1.435
          1.100        1.161        0.943        1.366        0.468        1.418
          1.200        1.124        0.962        1.352        0.462        1.404
          1.300        1.092        0.979        1.340        0.457        1.394
          1.400        1.064        0.995        1.332        0.453        1.386
          1.500        1.039        1.009        1.326        0.449        1.380
          1.600        1.018        1.024        1.322        0.444        1.376
          1.700        1.000        1.035        1.319        0.442        1.373
          1.800        0.984        1.044        1.316        0.439        1.370
          1.900        0.970        1.055        1.316        0.437        1.370
          2.000        0.959        1.065        1.316        0.435        1.370
