#  log_10 of normalized differential counts per steradian [log(S^{5/2} dN/dS), S in Jy]  at 857.00 GHz
#          log S(Jy)    FSRQ        BL Lacs   flat total steep-spectrum     Total 
# desc: logs@@float dnds_fsrq@@float dnds_bllacs@@float dnds_flat@@float dnds_steep@@float dnds_total@@float
         -7.000       -4.224       -2.793       -2.778       -5.039       -2.775
         -6.900       -4.135       -2.732       -2.715       -4.946       -2.712
         -6.800       -4.047       -2.670       -2.652       -4.848       -2.650
         -6.700       -3.961       -2.610       -2.591       -4.753       -2.589
         -6.600       -3.875       -2.552       -2.532       -4.656       -2.528
         -6.500       -3.789       -2.494       -2.473       -4.553       -2.469
         -6.400       -3.704       -2.437       -2.414       -4.456       -2.410
         -6.300       -3.619       -2.381       -2.357       -4.353       -2.352
         -6.200       -3.534       -2.325       -2.299       -4.241       -2.294
         -6.100       -3.449       -2.270       -2.242       -4.132       -2.237
         -6.000       -3.364       -2.215       -2.186       -4.012       -2.179
         -5.900       -3.280       -2.161       -2.130       -3.897       -2.122
         -5.800       -3.195       -2.108       -2.074       -3.773       -2.065
         -5.700       -3.111       -2.055       -2.018       -3.636       -2.008
         -5.600       -3.027       -2.002       -1.963       -3.493       -1.950
         -5.500       -2.942       -1.950       -1.908       -3.340       -1.892
         -5.400       -2.858       -1.898       -1.853       -3.174       -1.832
         -5.300       -2.774       -1.846       -1.797       -3.011       -1.772
         -5.200       -2.689       -1.794       -1.742       -2.873       -1.711
         -5.100       -2.605       -1.743       -1.687       -2.760       -1.652
         -5.000       -2.521       -1.693       -1.632       -2.661       -1.594
         -4.900       -2.437       -1.642       -1.577       -2.570       -1.535
         -4.800       -2.352       -1.592       -1.522       -2.481       -1.477
         -4.700       -2.268       -1.542       -1.467       -2.396       -1.419
         -4.600       -2.184       -1.492       -1.412       -2.313       -1.360
         -4.500       -2.100       -1.442       -1.356       -2.230       -1.301
         -4.400       -2.016       -1.393       -1.300       -2.149       -1.243
         -4.300       -1.931       -1.344       -1.244       -2.071       -1.184
         -4.200       -1.847       -1.296       -1.188       -1.997       -1.125
         -4.100       -1.763       -1.247       -1.132       -1.928       -1.067
         -4.000       -1.679       -1.199       -1.075       -1.862       -1.009
         -3.900       -1.595       -1.151       -1.018       -1.805       -0.952
         -3.800       -1.510       -1.104       -0.960       -1.758       -0.896
         -3.700       -1.426       -1.056       -0.902       -1.733       -0.842
         -3.600       -1.342       -1.009       -0.844       -1.742       -0.792
         -3.500       -1.258       -0.963       -0.785       -1.806       -0.745
         -3.400       -1.174       -0.916       -0.725       -1.889       -0.696
         -3.300       -1.090       -0.870       -0.665       -1.954       -0.643
         -3.200       -1.005       -0.825       -0.605       -2.003       -0.588
         -3.100       -0.921       -0.779       -0.544       -2.039       -0.530
         -3.000       -0.837       -0.734       -0.482       -2.071       -0.471
         -2.900       -0.753       -0.689       -0.419       -2.104       -0.410
         -2.800       -0.669       -0.645       -0.356       -2.128       -0.349
         -2.700       -0.585       -0.601       -0.292       -2.150       -0.286
         -2.600       -0.501       -0.557       -0.227       -2.166       -0.222
         -2.500       -0.417       -0.514       -0.162       -2.189       -0.158
         -2.400       -0.334       -0.471       -0.096       -2.205       -0.092
         -2.300       -0.250       -0.429       -0.029       -2.213       -0.026
         -2.200       -0.166       -0.386        0.039       -2.227        0.041
         -2.100       -0.083       -0.344        0.107       -2.242        0.109
         -2.000        0.001       -0.303        0.176       -2.249        0.178
         -1.900        0.084       -0.262        0.246       -2.263        0.247
         -1.800        0.167       -0.221        0.316       -2.269        0.317
         -1.700        0.250       -0.181        0.387       -2.275        0.388
         -1.600        0.332       -0.141        0.458       -2.281        0.459
         -1.500        0.414       -0.101        0.530       -2.293        0.531
         -1.400        0.496       -0.062        0.602       -2.296        0.603
         -1.300        0.577       -0.023        0.674       -2.298        0.674
         -1.200        0.657        0.015        0.746       -2.309        0.746
         -1.100        0.735        0.053        0.817       -2.310        0.818
         -1.000        0.813        0.091        0.888       -2.313        0.888
         -0.900        0.888        0.128        0.958       -2.316        0.958
         -0.800        0.961        0.165        1.025       -2.318        1.025
         -0.700        1.030        0.202        1.090       -2.323        1.090
         -0.600        1.095        0.238        1.151       -2.326        1.151
         -0.500        1.154        0.274        1.207       -2.327        1.207
         -0.400        1.204        0.309        1.256       -2.327        1.257
         -0.300        1.245        0.344        1.297       -2.328        1.297
         -0.200        1.274        0.379        1.326       -2.329        1.326
         -0.100        1.289        0.413        1.343       -2.331        1.343
          0.000        1.289        0.448        1.347       -2.331        1.347
          0.100        1.274        0.481        1.339       -2.335        1.339
          0.200        1.246        0.514        1.320       -2.337        1.320
          0.300        1.208        0.543        1.293       -2.337        1.293
          0.400        1.164        0.571        1.262       -2.337        1.263
          0.500        1.115        0.598        1.230       -2.336        1.231
          0.600        1.066        0.623        1.200       -2.337        1.200
          0.700        1.018        0.647        1.172       -2.334        1.172
          0.800        0.972        0.670        1.148       -2.338        1.148
          0.900        0.930        0.692        1.128       -2.336        1.128
          1.000        0.893        0.711        1.112       -2.336        1.112
          1.100        0.859        0.729        1.100       -2.335        1.100
          1.200        0.829        0.745        1.090       -2.334        1.090
          1.300        0.803        0.760        1.083       -2.335        1.083
          1.400        0.781        0.774        1.079       -2.336        1.079
          1.500        0.761        0.786        1.075       -2.338        1.075
          1.600        0.745        0.797        1.073       -2.339        1.073
          1.700        0.730        0.807        1.071       -2.341        1.072
          1.800        0.718        0.817        1.071       -2.341        1.071
          1.900        0.707        0.826        1.071       -2.340        1.072
          2.000        0.697        0.830        1.070       -2.340        1.070

