#  log_10 of normalized differential counts per steradian [log(S^{5/2} dN/dS), S in Jy]  at 545.00 GHz
#          log S(Jy)    FSRQ        BL Lacs   flat total steep-spectrum     Total 
# desc: logs@@float dnds_fsrq@@float dnds_bllacs@@float dnds_flat@@float dnds_steep@@float dnds_total@@float
         -7.000       -4.212       -2.777       -2.761       -4.927       -2.758
         -6.900       -4.123       -2.714       -2.698       -4.834       -2.695
         -6.800       -4.035       -2.653       -2.636       -4.739       -2.632
         -6.700       -3.948       -2.594       -2.575       -4.645       -2.571
         -6.600       -3.862       -2.534       -2.514       -4.547       -2.510
         -6.500       -3.776       -2.476       -2.455       -4.453       -2.450
         -6.400       -3.691       -2.419       -2.396       -4.355       -2.391
         -6.300       -3.606       -2.363       -2.338       -4.252       -2.333
         -6.200       -3.521       -2.306       -2.281       -4.155       -2.275
         -6.100       -3.436       -2.252       -2.224       -4.052       -2.218
         -6.000       -3.352       -2.197       -2.168       -3.941       -2.160
         -5.900       -3.267       -2.143       -2.111       -3.831       -2.103
         -5.800       -3.183       -2.089       -2.056       -3.720       -2.046
         -5.700       -3.098       -2.036       -2.000       -3.595       -1.989
         -5.600       -3.014       -1.983       -1.944       -3.470       -1.932
         -5.500       -2.929       -1.930       -1.889       -3.334       -1.874
         -5.400       -2.845       -1.878       -1.834       -3.191       -1.815
         -5.300       -2.761       -1.826       -1.779       -3.038       -1.755
         -5.200       -2.676       -1.775       -1.724       -2.872       -1.694
         -5.100       -2.592       -1.724       -1.669       -2.709       -1.631
         -5.000       -2.508       -1.673       -1.614       -2.571       -1.568
         -4.900       -2.424       -1.622       -1.559       -2.459       -1.507
         -4.800       -2.339       -1.572       -1.504       -2.360       -1.447
         -4.700       -2.255       -1.522       -1.448       -2.267       -1.387
         -4.600       -2.171       -1.472       -1.393       -2.179       -1.327
         -4.500       -2.087       -1.423       -1.337       -2.093       -1.267
         -4.400       -2.003       -1.373       -1.282       -2.008       -1.207
         -4.300       -1.918       -1.324       -1.226       -1.926       -1.147
         -4.200       -1.834       -1.276       -1.170       -1.845       -1.086
         -4.100       -1.750       -1.227       -1.113       -1.766       -1.026
         -4.000       -1.666       -1.179       -1.056       -1.689       -0.966
         -3.900       -1.582       -1.131       -0.999       -1.615       -0.905
         -3.800       -1.497       -1.084       -0.942       -1.545       -0.845
         -3.700       -1.413       -1.036       -0.884       -1.483       -0.787
         -3.600       -1.329       -0.989       -0.826       -1.430       -0.729
         -3.500       -1.245       -0.942       -0.767       -1.387       -0.673
         -3.400       -1.161       -0.896       -0.708       -1.366       -0.621
         -3.300       -1.077       -0.850       -0.648       -1.391       -0.575
         -3.200       -0.993       -0.804       -0.587       -1.455       -0.532
         -3.100       -0.908       -0.759       -0.526       -1.532       -0.485
         -3.000       -0.824       -0.714       -0.464       -1.595       -0.433
         -2.900       -0.740       -0.669       -0.402       -1.639       -0.378
         -2.800       -0.656       -0.624       -0.339       -1.677       -0.319
         -2.700       -0.572       -0.580       -0.275       -1.705       -0.259
         -2.600       -0.488       -0.536       -0.211       -1.730       -0.198
         -2.500       -0.404       -0.493       -0.145       -1.754       -0.135
         -2.400       -0.321       -0.450       -0.079       -1.778       -0.071
         -2.300       -0.237       -0.407       -0.013       -1.795       -0.006
         -2.200       -0.153       -0.365        0.055       -1.811        0.061
         -2.100       -0.069       -0.323        0.123       -1.827        0.128
         -2.000        0.014       -0.282        0.192       -1.843        0.196
         -1.900        0.097       -0.240        0.261       -1.858        0.265
         -1.800        0.180       -0.200        0.332       -1.872        0.334
         -1.700        0.263       -0.159        0.402       -1.879        0.405
         -1.600        0.346       -0.119        0.474       -1.892        0.476
         -1.500        0.428       -0.080        0.545       -1.898        0.547
         -1.400        0.509       -0.040        0.617       -1.910        0.619
         -1.300        0.590       -0.001        0.689       -1.916        0.690
         -1.200        0.671        0.037        0.761       -1.922        0.762
         -1.100        0.750        0.075        0.833       -1.927        0.834
         -1.000        0.827        0.113        0.904       -1.932        0.904
         -0.900        0.903        0.150        0.974       -1.935        0.974
         -0.800        0.976        0.187        1.042       -1.937        1.042
         -0.700        1.046        0.224        1.107       -1.947        1.108
         -0.600        1.112        0.260        1.169       -1.948        1.170
         -0.500        1.172        0.296        1.226       -1.950        1.227
         -0.400        1.225        0.332        1.277       -1.954        1.277
         -0.300        1.268        0.367        1.319       -1.955        1.319
         -0.200        1.299        0.402        1.351       -1.960        1.351
         -0.100        1.317        0.436        1.370       -1.962        1.371
          0.000        1.320        0.470        1.377       -1.963        1.377
          0.100        1.307        0.504        1.371       -1.964        1.371
          0.200        1.282        0.537        1.354       -1.964        1.354
          0.300        1.246        0.567        1.328       -1.964        1.329
          0.400        1.202        0.595        1.298       -1.966        1.298
          0.500        1.154        0.622        1.266       -1.967        1.266
          0.600        1.105        0.648        1.235       -1.964        1.235
          0.700        1.057        0.672        1.207       -1.965        1.207
          0.800        1.010        0.696        1.182       -1.964        1.182
          0.900        0.968        0.716        1.161       -1.972        1.161
          1.000        0.929        0.737        1.144       -1.972        1.145
          1.100        0.895        0.755        1.131       -1.972        1.132
          1.200        0.864        0.772        1.121       -1.969        1.122
          1.300        0.837        0.787        1.114       -1.969        1.114
          1.400        0.814        0.800        1.108       -1.971        1.109
          1.500        0.795        0.814        1.105       -1.971        1.106
          1.600        0.777        0.824        1.102       -1.970        1.103
          1.700        0.763        0.836        1.102       -1.970        1.102
          1.800        0.750        0.843        1.100       -1.970        1.100
          1.900        0.738        0.853        1.101       -1.971        1.101
          2.000        0.729        0.858        1.099       -1.971        1.099



