#log_10 of normalized differential counts per steradian [log(S^{5/2} dN/dS), S in Jy]  at 143.00 GHz
#        log S(Jy)    FSRQ        BL Lacs   flat total steep-spectrum     Total 
# desc: logs@@float dnds_fsrq@@float dnds_bllacs@@float dnds_flat@@float dnds_steep@@float dnds_total@@float
         -7.000       -4.177       -2.727       -2.712       -4.611       -2.706
         -6.900       -4.087       -2.662       -2.646       -4.515       -2.640
         -6.800       -3.999       -2.601       -2.584       -4.420       -2.577
         -6.700       -3.911       -2.541       -2.523       -4.326       -2.516
         -6.600       -3.825       -2.481       -2.462       -4.230       -2.454
         -6.500       -3.739       -2.423       -2.402       -4.137       -2.394
         -6.400       -3.653       -2.365       -2.343       -4.044       -2.335
         -6.300       -3.568       -2.308       -2.285       -3.950       -2.276
         -6.200       -3.483       -2.251       -2.227       -3.856       -2.217
         -6.100       -3.398       -2.196       -2.170       -3.762       -2.159
         -6.000       -3.314       -2.141       -2.113       -3.664       -2.101
         -5.900       -3.229       -2.087       -2.057       -3.569       -2.044
         -5.800       -3.144       -2.033       -2.001       -3.472       -1.986
         -5.700       -3.060       -1.980       -1.945       -3.369       -1.929
         -5.600       -2.976       -1.926       -1.889       -3.272       -1.872
         -5.500       -2.891       -1.874       -1.834       -3.162       -1.814
         -5.400       -2.807       -1.821       -1.779       -3.056       -1.756
         -5.300       -2.723       -1.770       -1.724       -2.946       -1.698
         -5.200       -2.638       -1.718       -1.669       -2.826       -1.639
         -5.100       -2.554       -1.666       -1.613       -2.698       -1.579
         -5.000       -2.470       -1.615       -1.558       -2.572       -1.518
         -4.900       -2.385       -1.565       -1.503       -2.435       -1.455
         -4.800       -2.301       -1.514       -1.448       -2.287       -1.390
         -4.700       -2.217       -1.464       -1.393       -2.130       -1.320
         -4.600       -2.133       -1.414       -1.338       -1.967       -1.246
         -4.500       -2.049       -1.364       -1.283       -1.804       -1.168
         -4.400       -1.964       -1.315       -1.227       -1.673       -1.094
         -4.300       -1.880       -1.266       -1.171       -1.566       -1.024
         -4.200       -1.796       -1.217       -1.115       -1.471       -0.957
         -4.100       -1.712       -1.168       -1.059       -1.380       -0.889
         -4.000       -1.628       -1.120       -1.002       -1.291       -0.822
         -3.900       -1.543       -1.072       -0.945       -1.204       -0.755
         -3.800       -1.459       -1.024       -0.888       -1.119       -0.688
         -3.700       -1.375       -0.977       -0.831       -1.036       -0.620
         -3.600       -1.291       -0.929       -0.772       -0.953       -0.552
         -3.500       -1.207       -0.882       -0.714       -0.872       -0.485
         -3.400       -1.123       -0.836       -0.655       -0.793       -0.417
         -3.300       -1.038       -0.790       -0.595       -0.716       -0.351
         -3.200       -0.954       -0.744       -0.535       -0.642       -0.284
         -3.100       -0.870       -0.698       -0.474       -0.572       -0.219
         -3.000       -0.786       -0.653       -0.413       -0.507       -0.157
         -2.900       -0.702       -0.608       -0.351       -0.447       -0.095
         -2.800       -0.618       -0.563       -0.289       -0.395       -0.037
         -2.700       -0.534       -0.519       -0.225       -0.362        0.013
         -2.600       -0.450       -0.475       -0.161       -0.352        0.055
         -2.500       -0.366       -0.431       -0.096       -0.378        0.086
         -2.400       -0.282       -0.388       -0.031       -0.445        0.111
         -2.300       -0.198       -0.345        0.036       -0.508        0.145
         -2.200       -0.114       -0.302        0.103       -0.551        0.190
         -2.100       -0.031       -0.260        0.170       -0.587        0.240
         -2.000        0.053       -0.219        0.239       -0.620        0.295
         -1.900        0.136       -0.177        0.308       -0.647        0.354
         -1.800        0.219       -0.136        0.378       -0.671        0.415
         -1.700        0.302       -0.096        0.448       -0.695        0.479
         -1.600        0.385       -0.055        0.519       -0.718        0.544
         -1.500        0.467       -0.015        0.591       -0.737        0.611
         -1.400        0.549        0.024        0.663       -0.759        0.679
         -1.300        0.631        0.063        0.735       -0.777        0.748
         -1.200        0.711        0.102        0.807       -0.792        0.818
         -1.100        0.791        0.140        0.879       -0.808        0.887
         -1.000        0.869        0.178        0.950       -0.820        0.957
         -0.900        0.946        0.216        1.020       -0.835        1.026
         -0.800        1.021        0.253        1.090       -0.844        1.095
         -0.700        1.093        0.290        1.157       -0.857        1.161
         -0.600        1.162        0.326        1.221       -0.865        1.224
         -0.500        1.225        0.362        1.281       -0.876        1.284
         -0.400        1.282        0.398        1.336       -0.882        1.338
         -0.300        1.331        0.434        1.383       -0.888        1.385
         -0.200        1.369        0.469        1.421       -0.893        1.423
         -0.100        1.395        0.503        1.448       -0.900        1.450
          0.000        1.407        0.538        1.462       -0.904        1.464
          0.100        1.403        0.572        1.463       -0.908        1.465
          0.200        1.386        0.605        1.452       -0.912        1.454
          0.300        1.355        0.637        1.431       -0.919        1.433
          0.400        1.315        0.666        1.403       -0.922        1.405
          0.500        1.270        0.693        1.372       -0.924        1.374
          0.600        1.221        0.720        1.340       -0.926        1.342
          0.700        1.172        0.746        1.310       -0.929        1.312
          0.800        1.124        0.769        1.283       -0.930        1.286
          0.900        1.079        0.792        1.260       -0.930        1.263
          1.000        1.038        0.812        1.241       -0.931        1.244
          1.100        1.001        0.831        1.226       -0.937        1.229
          1.200        0.968        0.849        1.214       -0.937        1.217
          1.300        0.940        0.865        1.205       -0.937        1.208
          1.400        0.915        0.879        1.198       -0.938        1.201
          1.500        0.893        0.894        1.195       -0.937        1.198
          1.600        0.874        0.905        1.191       -0.940        1.194
          1.700        0.858        0.917        1.190       -0.938        1.193
          1.800        0.844        0.925        1.188       -0.939        1.191
          1.900        0.832        0.935        1.187       -0.938        1.191
          2.000        0.821        0.943        1.187       -0.938        1.191



