####################
#Euclidean normalized differential source counts at 150 MHz from the model in Massardi et al. (2010).
# col. 1 =      log(S [Jy])
# col. 2 =      S^2.5dN/dS[Jy^1.5/sr] (sum of all the populations)
# col. 3 =      source counts for FSRQs	
# col. 4 =      source counts for BLLacs	
# col. 5 =      source counts for steep-spectrum objects	
##################
# desc: logs@@float dnds_total@@float dnds_fsrq@@float dnds_bllacs@@float dnds_steep@@float 
         -6.000      0.223E-01      0.328E-03      0.643E-02      0.155E-01
         -5.920      0.263E-01      0.376E-03      0.743E-02      0.185E-01
         -5.840      0.311E-01      0.431E-03      0.858E-02      0.220E-01
         -5.760      0.367E-01      0.495E-03      0.991E-02      0.263E-01
         -5.680      0.433E-01      0.567E-03      0.114E-01      0.313E-01
         -5.600      0.512E-01      0.650E-03      0.132E-01      0.373E-01
         -5.520      0.604E-01      0.745E-03      0.153E-01      0.444E-01
         -5.440      0.713E-01      0.854E-03      0.176E-01      0.529E-01
         -5.360      0.842E-01      0.979E-03      0.203E-01      0.629E-01
         -5.280      0.995E-01      0.112E-02      0.235E-01      0.749E-01
         -5.200      0.117E+00      0.129E-02      0.271E-01      0.891E-01
         -5.120      0.139E+00      0.147E-02      0.313E-01      0.106E+00
         -5.040      0.164E+00      0.169E-02      0.361E-01      0.126E+00
         -4.960      0.194E+00      0.194E-02      0.416E-01      0.150E+00
         -4.880      0.229E+00      0.222E-02      0.480E-01      0.179E+00
         -4.800      0.271E+00      0.254E-02      0.554E-01      0.213E+00
         -4.720      0.321E+00      0.292E-02      0.639E-01      0.254E+00
         -4.640      0.379E+00      0.334E-02      0.736E-01      0.302E+00
         -4.560      0.448E+00      0.383E-02      0.849E-01      0.360E+00
         -4.480      0.530E+00      0.439E-02      0.979E-01      0.428E+00
         -4.400      0.627E+00      0.503E-02      0.113E+00      0.509E+00
         -4.320      0.742E+00      0.577E-02      0.130E+00      0.606E+00
         -4.240      0.880E+00      0.660E-02      0.150E+00      0.723E+00
         -4.160      0.104E+01      0.757E-02      0.173E+00      0.862E+00
         -4.080      0.123E+01      0.868E-02      0.199E+00      0.103E+01
         -4.000      0.146E+01      0.995E-02      0.229E+00      0.122E+01
         -3.920      0.173E+01      0.114E-01      0.264E+00      0.146E+01
         -3.840      0.205E+01      0.131E-01      0.303E+00      0.173E+01
         -3.760      0.243E+01      0.150E-01      0.349E+00      0.207E+01
         -3.680      0.288E+01      0.172E-01      0.401E+00      0.246E+01
         -3.600      0.341E+01      0.197E-01      0.461E+00      0.293E+01
         -3.520      0.404E+01      0.225E-01      0.530E+00      0.349E+01
         -3.440      0.480E+01      0.258E-01      0.608E+00      0.416E+01
         -3.360      0.569E+01      0.296E-01      0.698E+00      0.496E+01
         -3.280      0.675E+01      0.339E-01      0.800E+00      0.592E+01
         -3.200      0.801E+01      0.389E-01      0.916E+00      0.706E+01
         -3.120      0.951E+01      0.446E-01      0.105E+01      0.842E+01
         -3.040      0.113E+02      0.511E-01      0.120E+01      0.100E+02
         -2.960      0.134E+02      0.585E-01      0.137E+01      0.120E+02
         -2.880      0.159E+02      0.671E-01      0.156E+01      0.143E+02
         -2.800      0.189E+02      0.769E-01      0.178E+01      0.171E+02
         -2.720      0.225E+02      0.881E-01      0.203E+01      0.204E+02
         -2.640      0.268E+02      0.101E+00      0.230E+01      0.244E+02
         -2.560      0.318E+02      0.116E+00      0.261E+01      0.291E+02
         -2.480      0.378E+02      0.133E+00      0.295E+01      0.348E+02
         -2.400      0.450E+02      0.152E+00      0.334E+01      0.415E+02
         -2.320      0.536E+02      0.174E+00      0.376E+01      0.496E+02
         -2.240      0.640E+02      0.200E+00      0.423E+01      0.596E+02
         -2.160      0.762E+02      0.229E+00      0.474E+01      0.713E+02
         -2.080      0.907E+02      0.262E+00      0.530E+01      0.852E+02
         -2.000      0.108E+03      0.300E+00      0.591E+01      0.102E+03
         -1.920      0.129E+03      0.344E+00      0.656E+01      0.122E+03
         -1.840      0.153E+03      0.394E+00      0.726E+01      0.145E+03
         -1.760      0.181E+03      0.451E+00      0.801E+01      0.173E+03
         -1.680      0.215E+03      0.517E+00      0.882E+01      0.205E+03
         -1.600      0.255E+03      0.592E+00      0.966E+01      0.245E+03
         -1.520      0.302E+03      0.678E+00      0.105E+02      0.291E+03
         -1.440      0.357E+03      0.777E+00      0.115E+02      0.345E+03
         -1.360      0.421E+03      0.889E+00      0.124E+02      0.408E+03
         -1.280      0.497E+03      0.102E+01      0.134E+02      0.483E+03
         -1.200      0.586E+03      0.116E+01      0.145E+02      0.571E+03
         -1.120      0.687E+03      0.133E+01      0.155E+02      0.670E+03
         -1.040      0.801E+03      0.152E+01      0.166E+02      0.783E+03
         -0.960      0.930E+03      0.174E+01      0.177E+02      0.911E+03
         -0.880      0.108E+04      0.199E+01      0.188E+02      0.106E+04
         -0.800      0.124E+04      0.228E+01      0.199E+02      0.122E+04
         -0.720      0.142E+04      0.261E+01      0.211E+02      0.140E+04
         -0.640      0.162E+04      0.298E+01      0.222E+02      0.159E+04
         -0.560      0.183E+04      0.340E+01      0.233E+02      0.180E+04
         -0.480      0.206E+04      0.388E+01      0.245E+02      0.203E+04
         -0.400      0.231E+04      0.442E+01      0.256E+02      0.228E+04
         -0.320      0.257E+04      0.503E+01      0.267E+02      0.254E+04
         -0.240      0.283E+04      0.572E+01      0.277E+02      0.280E+04
         -0.160      0.309E+04      0.648E+01      0.288E+02      0.306E+04
         -0.080      0.336E+04      0.733E+01      0.298E+02      0.332E+04
          0.000      0.362E+04      0.825E+01      0.308E+02      0.358E+04
          0.080      0.386E+04      0.931E+01      0.318E+02      0.382E+04
          0.160      0.407E+04      0.104E+02      0.327E+02      0.403E+04
          0.240      0.426E+04      0.115E+02      0.337E+02      0.422E+04
          0.320      0.442E+04      0.127E+02      0.346E+02      0.437E+04
          0.400      0.454E+04      0.140E+02      0.355E+02      0.449E+04
          0.480      0.463E+04      0.153E+02      0.364E+02      0.458E+04
          0.560      0.466E+04      0.167E+02      0.374E+02      0.461E+04
          0.640      0.465E+04      0.181E+02      0.383E+02      0.459E+04
          0.720      0.460E+04      0.196E+02      0.391E+02      0.454E+04
          0.800      0.451E+04      0.211E+02      0.400E+02      0.445E+04
          0.880      0.440E+04      0.225E+02      0.409E+02      0.434E+04
          0.960      0.426E+04      0.236E+02      0.417E+02      0.419E+04
          1.040      0.410E+04      0.245E+02      0.425E+02      0.404E+04
          1.120      0.394E+04      0.251E+02      0.433E+02      0.388E+04
          1.200      0.378E+04      0.254E+02      0.440E+02      0.371E+04
          1.280      0.362E+04      0.264E+02      0.447E+02      0.355E+04
          1.360      0.343E+04      0.261E+02      0.454E+02      0.336E+04
          1.440      0.326E+04      0.252E+02      0.460E+02      0.318E+04
          1.520      0.309E+04      0.241E+02      0.467E+02      0.302E+04
          1.600      0.291E+04      0.229E+02      0.473E+02      0.284E+04
          1.680      0.274E+04      0.216E+02      0.479E+02      0.267E+04
          1.760      0.256E+04      0.201E+02      0.485E+02      0.249E+04
          1.840      0.238E+04      0.187E+02      0.490E+02      0.231E+04
          1.920      0.221E+04      0.172E+02      0.496E+02      0.215E+04
