#  log_10 of normalized differential counts per steradian [log(S^{5/2} dN/dS), S in Jy]  at  70.00 GHz
#          log S(Jy)    FSRQ        BL Lacs   flat total steep-spectrum     Total 
# desc: logs@@float dnds_fsrq@@float dnds_bllacs@@float dnds_flat@@float dnds_steep@@float dnds_total@@float
         -7.000       -4.159       -2.700       -2.685       -4.459       -2.678
         -6.900       -4.068       -2.636       -2.620       -4.360       -2.612
         -6.800       -3.979       -2.574       -2.557       -4.262       -2.549
         -6.700       -3.892       -2.513       -2.495       -4.165       -2.486
         -6.600       -3.805       -2.453       -2.434       -4.068       -2.424
         -6.500       -3.719       -2.394       -2.374       -3.974       -2.363
         -6.400       -3.633       -2.337       -2.315       -3.879       -2.303
         -6.300       -3.548       -2.279       -2.256       -3.784       -2.243
         -6.200       -3.463       -2.223       -2.199       -3.691       -2.185
         -6.100       -3.378       -2.167       -2.141       -3.598       -2.126
         -6.000       -3.293       -2.112       -2.084       -3.504       -2.068
         -5.900       -3.209       -2.057       -2.028       -3.410       -2.010
         -5.800       -3.124       -2.003       -1.971       -3.316       -1.952
         -5.700       -3.040       -1.950       -1.916       -3.218       -1.895
         -5.600       -2.955       -1.896       -1.860       -3.124       -1.837
         -5.500       -2.871       -1.844       -1.805       -3.026       -1.779
         -5.400       -2.786       -1.791       -1.749       -2.923       -1.721
         -5.300       -2.702       -1.739       -1.694       -2.826       -1.663
         -5.200       -2.618       -1.687       -1.639       -2.716       -1.604
         -5.100       -2.534       -1.636       -1.584       -2.610       -1.545
         -5.000       -2.449       -1.585       -1.529       -2.500       -1.485
         -4.900       -2.365       -1.534       -1.474       -2.379       -1.423
         -4.800       -2.281       -1.483       -1.419       -2.251       -1.359
         -4.700       -2.197       -1.433       -1.364       -2.125       -1.294
         -4.600       -2.112       -1.383       -1.309       -1.988       -1.226
         -4.500       -2.028       -1.333       -1.253       -1.840       -1.153
         -4.400       -1.944       -1.284       -1.198       -1.676       -1.073
         -4.300       -1.860       -1.234       -1.142       -1.513       -0.988
         -4.200       -1.776       -1.185       -1.086       -1.351       -0.898
         -4.100       -1.691       -1.137       -1.030       -1.224       -0.815
         -4.000       -1.607       -1.088       -0.973       -1.118       -0.739
         -3.900       -1.523       -1.040       -0.917       -1.023       -0.665
         -3.800       -1.439       -0.992       -0.859       -0.932       -0.593
         -3.700       -1.355       -0.945       -0.802       -0.844       -0.522
         -3.600       -1.270       -0.897       -0.744       -0.757       -0.450
         -3.500       -1.186       -0.850       -0.686       -0.672       -0.378
         -3.400       -1.102       -0.804       -0.627       -0.588       -0.306
         -3.300       -1.018       -0.757       -0.567       -0.505       -0.234
         -3.200       -0.934       -0.711       -0.507       -0.423       -0.162
         -3.100       -0.850       -0.665       -0.447       -0.343       -0.091
         -3.000       -0.766       -0.620       -0.386       -0.265       -0.020
         -2.900       -0.681       -0.575       -0.324       -0.190        0.049
         -2.800       -0.597       -0.530       -0.261       -0.116        0.118
         -2.700       -0.513       -0.486       -0.198       -0.048        0.184
         -2.600       -0.429       -0.442       -0.134        0.014        0.247
         -2.500       -0.345       -0.398       -0.070        0.071        0.308
         -2.400       -0.262       -0.355       -0.005        0.116        0.361
         -2.300       -0.178       -0.312        0.061        0.146        0.407
         -2.200       -0.094       -0.269        0.128        0.153        0.442
         -2.100       -0.010       -0.227        0.196        0.125        0.463
         -2.000        0.073       -0.185        0.264        0.065        0.477
         -1.900        0.157       -0.143        0.333        0.013        0.503
         -1.800        0.240       -0.102        0.403       -0.023        0.541
         -1.700        0.323       -0.062        0.473       -0.056        0.586
         -1.600        0.406       -0.021        0.544       -0.085        0.636
         -1.500        0.488        0.019        0.615       -0.108        0.690
         -1.400        0.570        0.058        0.687       -0.135        0.748
         -1.300        0.652        0.098        0.759       -0.159        0.808
         -1.200        0.733        0.136        0.831       -0.183        0.871
         -1.100        0.813        0.175        0.903       -0.203        0.936
         -1.000        0.892        0.213        0.974       -0.224        1.001
         -0.900        0.969        0.251        1.045       -0.243        1.067
         -0.800        1.045        0.288        1.115       -0.262        1.133
         -0.700        1.118        0.325        1.183       -0.279        1.197
         -0.600        1.187        0.362        1.248       -0.294        1.260
         -0.500        1.253        0.398        1.309       -0.308        1.320
         -0.400        1.312        0.434        1.366       -0.320        1.375
         -0.300        1.363        0.469        1.416       -0.331        1.423
         -0.200        1.405        0.504        1.457       -0.343        1.464
         -0.100        1.435        0.539        1.487       -0.351        1.493
          0.000        1.451        0.574        1.505       -0.358        1.511
          0.100        1.453        0.608        1.511       -0.369        1.516
          0.200        1.439        0.642        1.503       -0.374        1.509
          0.300        1.412        0.674        1.485       -0.379        1.491
          0.400        1.375        0.703        1.459       -0.385        1.465
          0.500        1.331        0.731        1.428       -0.391        1.435
          0.600        1.283        0.759        1.396       -0.394        1.403
          0.700        1.233        0.784        1.366       -0.398        1.373
          0.800        1.185        0.808        1.337       -0.402        1.345
          0.900        1.139        0.832        1.313       -0.404        1.321
          1.000        1.097        0.853        1.293       -0.407        1.301
          1.100        1.059        0.872        1.277       -0.413        1.285
          1.200        1.025        0.891        1.264       -0.414        1.273
          1.300        0.995        0.907        1.254       -0.415        1.263
          1.400        0.969        0.922        1.247       -0.416        1.256
          1.500        0.946        0.936        1.242       -0.418        1.251
          1.600        0.926        0.949        1.239       -0.419        1.248
          1.700        0.909        0.959        1.236       -0.419        1.245
          1.800        0.895        0.970        1.235       -0.419        1.244
          1.900        0.882        0.977        1.233       -0.420        1.243
          2.000        0.871        0.986        1.233       -0.421        1.243



