#log_10 of normalized differential counts per steradian [log(S^{5/2} dN/dS), S in Jy] at  1199.17 GHz,  i.e.  0.250E+03 micron
#        log S(Jy)    FSRQ        BL Lacs   flat total steep-spectrum     Total 
# desc: logs@@float dnds_fsrq@@float dnds_bllacs@@float dnds_flat@@float dnds_steep@@float dnds_total@@float
         -7.000       -4.233       -2.806       -2.790       -5.122       -2.788
         -6.900       -4.144       -2.744       -2.727       -5.026       -2.725
         -6.800       -4.057       -2.684       -2.666       -4.931       -2.663
         -6.700       -3.970       -2.624       -2.605       -4.831       -2.602
         -6.600       -3.884       -2.565       -2.545       -4.735       -2.542
         -6.500       -3.798       -2.508       -2.486       -4.630       -2.483
         -6.400       -3.713       -2.451       -2.428       -4.520       -2.424
         -6.300       -3.628       -2.395       -2.370       -4.414       -2.366
         -6.200       -3.543       -2.339       -2.313       -4.303       -2.308
         -6.100       -3.459       -2.284       -2.256       -4.183       -2.251
         -6.000       -3.374       -2.230       -2.200       -4.056       -2.194
         -5.900       -3.289       -2.175       -2.143       -3.928       -2.136
         -5.800       -3.205       -2.122       -2.088       -3.783       -2.079
         -5.700       -3.121       -2.069       -2.032       -3.641       -2.021
         -5.600       -3.036       -2.016       -1.977       -3.478       -1.963
         -5.500       -2.952       -1.964       -1.921       -3.318       -1.904
         -5.400       -2.868       -1.912       -1.866       -3.166       -1.845
         -5.300       -2.783       -1.860       -1.811       -3.042       -1.786
         -5.200       -2.699       -1.809       -1.756       -2.937       -1.729
         -5.100       -2.615       -1.758       -1.701       -2.842       -1.671
         -5.000       -2.530       -1.707       -1.646       -2.754       -1.614
         -4.900       -2.446       -1.656       -1.591       -2.666       -1.556
         -4.800       -2.362       -1.606       -1.536       -2.583       -1.499
         -4.700       -2.278       -1.556       -1.481       -2.500       -1.441
         -4.600       -2.194       -1.507       -1.425       -2.421       -1.384
         -4.500       -2.109       -1.457       -1.370       -2.343       -1.326
         -4.400       -2.025       -1.408       -1.314       -2.268       -1.268
         -4.300       -1.941       -1.359       -1.258       -2.197       -1.211
         -4.200       -1.857       -1.310       -1.202       -2.134       -1.154
         -4.100       -1.773       -1.262       -1.145       -2.072       -1.097
         -4.000       -1.688       -1.214       -1.088       -2.029       -1.041
         -3.900       -1.604       -1.166       -1.031       -2.007       -0.987
         -3.800       -1.520       -1.119       -0.973       -2.020       -0.936
         -3.700       -1.436       -1.071       -0.915       -2.087       -0.887
         -3.600       -1.352       -1.025       -0.857       -2.173       -0.836
         -3.500       -1.267       -0.978       -0.798       -2.240       -0.783
         -3.400       -1.183       -0.932       -0.738       -2.291       -0.726
         -3.300       -1.099       -0.886       -0.678       -2.329       -0.669
         -3.200       -1.015       -0.840       -0.618       -2.360       -0.610
         -3.100       -0.931       -0.795       -0.556       -2.390       -0.550
         -3.000       -0.847       -0.750       -0.494       -2.417       -0.489
         -2.900       -0.763       -0.705       -0.432       -2.432       -0.428
         -2.800       -0.679       -0.661       -0.369       -2.456       -0.365
         -2.700       -0.595       -0.617       -0.305       -2.471       -0.302
         -2.600       -0.511       -0.573       -0.240       -2.486       -0.237
         -2.500       -0.427       -0.530       -0.174       -2.501       -0.172
         -2.400       -0.343       -0.487       -0.108       -2.515       -0.106
         -2.300       -0.259       -0.444       -0.041       -2.521       -0.040
         -2.200       -0.176       -0.402        0.027       -2.535        0.028
         -2.100       -0.092       -0.360        0.095       -2.541        0.096
         -2.000       -0.009       -0.319        0.164       -2.554        0.165
         -1.900        0.074       -0.278        0.234       -2.560        0.235
         -1.800        0.157       -0.237        0.304       -2.565        0.305
         -1.700        0.240       -0.197        0.375       -2.570        0.376
         -1.600        0.323       -0.157        0.447       -2.573        0.447
         -1.500        0.404       -0.117        0.519       -2.584        0.519
         -1.400        0.486       -0.078        0.591       -2.585        0.591
         -1.300        0.567       -0.040        0.663       -2.587        0.663
         -1.200        0.646       -0.001        0.735       -2.589        0.735
         -1.100        0.725        0.037        0.806       -2.592        0.806
         -1.000        0.802        0.074        0.877       -2.597        0.877
         -0.900        0.877        0.112        0.946       -2.598        0.946
         -0.800        0.949        0.149        1.013       -2.601        1.013
         -0.700        1.018        0.185        1.078       -2.602        1.078
         -0.600        1.082        0.221        1.138       -2.602        1.138
         -0.500        1.140        0.257        1.193       -2.603        1.193
         -0.400        1.189        0.292        1.241       -2.612        1.241
         -0.300        1.228        0.327        1.280       -2.612        1.280
         -0.200        1.255        0.362        1.308       -2.610        1.308
         -0.100        1.268        0.397        1.323       -2.610        1.323
          0.000        1.266        0.431        1.325       -2.612        1.325
          0.100        1.249        0.464        1.315       -2.612        1.315
          0.200        1.219        0.496        1.295       -2.612        1.295
          0.300        1.180        0.525        1.267       -2.611        1.267
          0.400        1.135        0.553        1.236       -2.611        1.236
          0.500        1.086        0.580        1.204       -2.613        1.204
          0.600        1.037        0.605        1.174       -2.615        1.174
          0.700        0.989        0.629        1.146       -2.617        1.146
          0.800        0.944        0.651        1.123       -2.618        1.123
          0.900        0.903        0.672        1.104       -2.619        1.104
          1.000        0.865        0.692        1.088       -2.618        1.088
          1.100        0.832        0.710        1.076       -2.617        1.077
          1.200        0.803        0.726        1.067       -2.617        1.067
          1.300        0.778        0.741        1.061       -2.614        1.061
          1.400        0.756        0.753        1.056       -2.614        1.056
          1.500        0.737        0.767        1.053       -2.616        1.053
          1.600        0.721        0.776        1.050       -2.616        1.051
          1.700        0.707        0.787        1.050       -2.615        1.050
          1.800        0.694        0.796        1.049       -2.614        1.050
          1.900        0.684        0.802        1.048       -2.614        1.048
          2.000        0.674        0.810        1.048       -2.616        1.048


