####################
#Euclidean normalized differential source counts at 610 MHz from the model in Massardi et al. (2010).
# col. 1 =      log(S [Jy])
# col. 2 =      S^2.5dN/dS[Jy^1.5/sr] (sum of all the populations)
# col. 3 =      source counts for FSRQs	
# col. 4 =      source counts for BLLacs	
# col. 5 =      source counts for steep-spectrum objects	
##################
# desc: logs@@float dnds_total@@float dnds_fsrq@@float dnds_bllacs@@float dnds_steep@@float
         -6.000      0.145E-01      0.295E-03      0.581E-02      0.838E-02
         -5.920      0.170E-01      0.338E-03      0.672E-02      0.998E-02
         -5.840      0.200E-01      0.388E-03      0.776E-02      0.119E-01
         -5.760      0.235E-01      0.445E-03      0.896E-02      0.141E-01
         -5.680      0.277E-01      0.510E-03      0.103E-01      0.168E-01
         -5.600      0.325E-01      0.584E-03      0.119E-01      0.200E-01
         -5.520      0.383E-01      0.670E-03      0.138E-01      0.238E-01
         -5.440      0.450E-01      0.768E-03      0.159E-01      0.283E-01
         -5.360      0.530E-01      0.880E-03      0.184E-01      0.338E-01
         -5.280      0.625E-01      0.101E-02      0.212E-01      0.403E-01
         -5.200      0.736E-01      0.116E-02      0.245E-01      0.479E-01
         -5.120      0.866E-01      0.133E-02      0.282E-01      0.570E-01
         -5.040      0.102E+00      0.152E-02      0.326E-01      0.679E-01
         -4.960      0.120E+00      0.174E-02      0.376E-01      0.808E-01
         -4.880      0.141E+00      0.200E-02      0.434E-01      0.961E-01
         -4.800      0.167E+00      0.229E-02      0.500E-01      0.114E+00
         -4.720      0.197E+00      0.262E-02      0.577E-01      0.137E+00
         -4.640      0.232E+00      0.300E-02      0.665E-01      0.163E+00
         -4.560      0.274E+00      0.344E-02      0.767E-01      0.194E+00
         -4.480      0.323E+00      0.395E-02      0.884E-01      0.231E+00
         -4.400      0.381E+00      0.452E-02      0.102E+00      0.275E+00
         -4.320      0.450E+00      0.518E-02      0.117E+00      0.327E+00
         -4.240      0.531E+00      0.593E-02      0.135E+00      0.390E+00
         -4.160      0.627E+00      0.681E-02      0.156E+00      0.465E+00
         -4.080      0.741E+00      0.780E-02      0.179E+00      0.554E+00
         -4.000      0.875E+00      0.894E-02      0.207E+00      0.659E+00
         -3.920      0.103E+01      0.102E-01      0.238E+00      0.786E+00
         -3.840      0.122E+01      0.117E-01      0.273E+00      0.937E+00
         -3.760      0.144E+01      0.135E-01      0.314E+00      0.112E+01
         -3.680      0.171E+01      0.154E-01      0.361E+00      0.133E+01
         -3.600      0.202E+01      0.177E-01      0.415E+00      0.159E+01
         -3.520      0.239E+01      0.203E-01      0.477E+00      0.190E+01
         -3.440      0.283E+01      0.232E-01      0.547E+00      0.226E+01
         -3.360      0.336E+01      0.266E-01      0.627E+00      0.270E+01
         -3.280      0.397E+01      0.305E-01      0.719E+00      0.323E+01
         -3.200      0.471E+01      0.350E-01      0.823E+00      0.385E+01
         -3.120      0.558E+01      0.401E-01      0.941E+00      0.460E+01
         -3.040      0.661E+01      0.459E-01      0.108E+01      0.549E+01
         -2.960      0.784E+01      0.526E-01      0.123E+01      0.656E+01
         -2.880      0.930E+01      0.603E-01      0.140E+01      0.784E+01
         -2.800      0.110E+02      0.691E-01      0.159E+01      0.937E+01
         -2.720      0.131E+02      0.792E-01      0.181E+01      0.113E+02
         -2.640      0.156E+02      0.908E-01      0.205E+01      0.135E+02
         -2.560      0.185E+02      0.104E+00      0.233E+01      0.161E+02
         -2.480      0.220E+02      0.119E+00      0.263E+01      0.192E+02
         -2.400      0.261E+02      0.137E+00      0.296E+01      0.230E+02
         -2.320      0.309E+02      0.157E+00      0.333E+01      0.274E+02
         -2.240      0.365E+02      0.179E+00      0.374E+01      0.326E+02
         -2.160      0.432E+02      0.206E+00      0.418E+01      0.388E+02
         -2.080      0.511E+02      0.235E+00      0.466E+01      0.462E+02
         -2.000      0.603E+02      0.270E+00      0.518E+01      0.548E+02
         -1.920      0.711E+02      0.309E+00      0.574E+01      0.650E+02
         -1.840      0.836E+02      0.354E+00      0.635E+01      0.769E+02
         -1.760      0.985E+02      0.406E+00      0.699E+01      0.911E+02
         -1.680      0.116E+03      0.465E+00      0.766E+01      0.108E+03
         -1.600      0.135E+03      0.532E+00      0.837E+01      0.126E+03
         -1.520      0.157E+03      0.609E+00      0.911E+01      0.148E+03
         -1.440      0.182E+03      0.697E+00      0.989E+01      0.172E+03
         -1.360      0.210E+03      0.798E+00      0.107E+02      0.199E+03
         -1.280      0.241E+03      0.913E+00      0.115E+02      0.229E+03
         -1.200      0.276E+03      0.105E+01      0.124E+02      0.263E+03
         -1.120      0.314E+03      0.120E+01      0.132E+02      0.300E+03
         -1.040      0.354E+03      0.137E+01      0.141E+02      0.338E+03
         -0.960      0.398E+03      0.156E+01      0.150E+02      0.382E+03
         -0.880      0.446E+03      0.179E+01      0.159E+02      0.428E+03
         -0.800      0.495E+03      0.205E+01      0.169E+02      0.476E+03
         -0.720      0.544E+03      0.234E+01      0.178E+02      0.524E+03
         -0.640      0.594E+03      0.267E+01      0.187E+02      0.572E+03
         -0.560      0.644E+03      0.305E+01      0.196E+02      0.621E+03
         -0.480      0.692E+03      0.347E+01      0.205E+02      0.669E+03
         -0.400      0.738E+03      0.395E+01      0.214E+02      0.713E+03
         -0.320      0.779E+03      0.450E+01      0.223E+02      0.753E+03
         -0.240      0.815E+03      0.510E+01      0.231E+02      0.786E+03
         -0.160      0.844E+03      0.577E+01      0.240E+02      0.814E+03
         -0.080      0.867E+03      0.650E+01      0.248E+02      0.836E+03
          0.000      0.883E+03      0.733E+01      0.256E+02      0.850E+03
          0.080      0.891E+03      0.821E+01      0.263E+02      0.856E+03
          0.160      0.889E+03      0.913E+01      0.271E+02      0.853E+03
          0.240      0.880E+03      0.101E+02      0.279E+02      0.842E+03
          0.320      0.865E+03      0.111E+02      0.286E+02      0.825E+03
          0.400      0.845E+03      0.122E+02      0.294E+02      0.803E+03
          0.480      0.820E+03      0.133E+02      0.301E+02      0.777E+03
          0.560      0.792E+03      0.144E+02      0.308E+02      0.747E+03
          0.640      0.764E+03      0.156E+02      0.315E+02      0.717E+03
          0.720      0.736E+03      0.168E+02      0.323E+02      0.687E+03
          0.800      0.707E+03      0.179E+02      0.330E+02      0.656E+03
          0.880      0.673E+03      0.189E+02      0.336E+02      0.620E+03
          0.960      0.643E+03      0.197E+02      0.343E+02      0.589E+03
          1.040      0.612E+03      0.203E+02      0.349E+02      0.557E+03
          1.120      0.581E+03      0.205E+02      0.355E+02      0.525E+03
          1.200      0.550E+03      0.212E+02      0.361E+02      0.492E+03
          1.280      0.517E+03      0.212E+02      0.367E+02      0.459E+03
          1.360      0.485E+03      0.206E+02      0.372E+02      0.427E+03
          1.440      0.454E+03      0.198E+02      0.377E+02      0.396E+03
          1.520      0.426E+03      0.188E+02      0.382E+02      0.369E+03
          1.600      0.402E+03      0.177E+02      0.387E+02      0.346E+03
          1.680      0.380E+03      0.166E+02      0.391E+02      0.324E+03
          1.760      0.359E+03      0.154E+02      0.396E+02      0.304E+03
          1.840      0.341E+03      0.142E+02      0.401E+02      0.287E+03
          1.920      0.329E+03      0.130E+02      0.406E+02      0.275E+03
